ID,Count
18288,501.0
18289,477.0
18290,451.0
18291,420.0
18292,380.0
18293,331.0
18294,279.0
18295,232.0
18296,187.0
18297,147.0
18298,119.0
18299,103.0
18300,96.0
18301,93.0
18302,93.0
18303,93.0
18304,93.0
18305,92.0
18306,90.0
18307,86.0
18308,81.0
18309,76.0
18310,71.0
18311,67.0
18312,64.0
18313,61.0
18314,59.0
18315,57.0
18316,55.0
18317,53.0
18318,51.0
18319,49.0
18320,47.0
18321,45.0
18322,43.0
18323,42.0
18324,40.0
18325,39.0
18326,38.0
18327,37.0
18328,36.0
18329,35.0
18330,34.0
18331,33.0
18332,32.0
18333,31.0
18334,30.0
18335,29.0
18336,28.0
18337,27.0
18338,26.0
18339,26.0
18340,25.0
18341,24.0
18342,24.0
18343,23.0
18344,22.0
18345,22.0
18346,21.0
18347,21.0
18348,20.0
18349,20.0
18350,19.0
18351,19.0
18352,18.0
18353,18.0
18354,17.0
18355,17.0
18356,16.0
18357,16.0
18358,16.0
18359,15.0
18360,15.0
18361,15.0
18362,15.0
18363,14.0
18364,14.0
18365,14.0
18366,14.0
18367,14.0
18368,14.0
18369,14.0
18370,14.0
18371,13.0
18372,13.0
18373,13.0
18374,13.0
18375,13.0
18376,13.0
18377,13.0
18378,13.0
18379,13.0
18380,13.0
18381,13.0
18382,13.0
18383,13.0
18384,13.0
18385,13.0
18386,13.0
18387,13.0
18388,13.0
18389,13.0
18390,13.0
18391,13.0
18392,13.0
18393,13.0
18394,13.0
18395,13.0
18396,13.0
18397,13.0
18398,13.0
18399,13.0
18400,13.0
18401,13.0
18402,13.0
18403,13.0
18404,13.0
18405,13.0
18406,13.0
18407,13.0
18408,13.0
18409,13.0
18410,13.0
18411,13.0
18412,13.0
18413,13.0
18414,13.0
18415,13.0
18416,13.0
18417,13.0
18418,13.0
18419,13.0
18420,13.0
18421,13.0
18422,13.0
18423,13.0
18424,13.0
18425,13.0
18426,13.0
18427,13.0
18428,13.0
18429,13.0
18430,13.0
18431,13.0
18432,13.0
18433,13.0
18434,13.0
18435,13.0
18436,13.0
18437,13.0
18438,13.0
18439,13.0
18440,13.0
18441,13.0
18442,13.0
18443,13.0
18444,13.0
18445,13.0
18446,13.0
18447,13.0
18448,13.0
18449,13.0
18450,13.0
18451,13.0
18452,13.0
18453,13.0
18454,13.0
18455,13.0
18456,13.0
18457,13.0
18458,13.0
18459,13.0
18460,13.0
18461,13.0
18462,13.0
18463,13.0
18464,13.0
18465,13.0
18466,13.0
18467,13.0
18468,13.0
18469,13.0
18470,13.0
18471,13.0
18472,13.0
18473,13.0
18474,13.0
18475,13.0
18476,13.0
18477,13.0
18478,13.0
18479,13.0
18480,13.0
18481,13.0
18482,13.0
18483,13.0
18484,13.0
18485,13.0
18486,13.0
18487,13.0
18488,13.0
18489,13.0
18490,13.0
18491,13.0
18492,13.0
18493,13.0
18494,13.0
18495,13.0
18496,13.0
18497,13.0
18498,13.0
18499,13.0
18500,13.0
18501,13.0
18502,13.0
18503,13.0
18504,13.0
18505,13.0
18506,13.0
18507,13.0
18508,13.0
18509,13.0
18510,13.0
18511,13.0
18512,13.0
18513,13.0
18514,13.0
18515,13.0
18516,13.0
18517,13.0
18518,13.0
18519,13.0
18520,13.0
18521,13.0
18522,13.0
18523,13.0
18524,13.0
18525,13.0
18526,13.0
18527,13.0
18528,13.0
18529,13.0
18530,13.0
18531,13.0
18532,13.0
18533,13.0
18534,13.0
18535,13.0
18536,13.0
18537,13.0
18538,13.0
18539,13.0
18540,13.0
18541,13.0
18542,13.0
18543,13.0
18544,13.0
18545,13.0
18546,13.0
18547,13.0
18548,13.0
18549,13.0
18550,13.0
18551,13.0
18552,13.0
18553,13.0
18554,13.0
18555,13.0
18556,13.0
18557,13.0
18558,13.0
18559,13.0
18560,13.0
18561,13.0
18562,13.0
18563,13.0
18564,13.0
18565,13.0
18566,13.0
18567,13.0
18568,13.0
18569,13.0
18570,13.0
18571,13.0
18572,13.0
18573,13.0
18574,13.0
18575,13.0
18576,13.0
18577,13.0
18578,13.0
18579,13.0
18580,13.0
18581,13.0
18582,13.0
18583,13.0
18584,13.0
18585,13.0
18586,13.0
18587,13.0
18588,13.0
18589,13.0
18590,13.0
18591,13.0
18592,13.0
18593,13.0
18594,13.0
18595,13.0
18596,13.0
18597,13.0
18598,13.0
18599,13.0
18600,13.0
18601,13.0
18602,13.0
18603,13.0
18604,13.0
18605,13.0
18606,13.0
18607,13.0
18608,13.0
18609,13.0
18610,13.0
18611,13.0
18612,13.0
18613,13.0
18614,13.0
18615,13.0
18616,13.0
18617,13.0
18618,13.0
18619,13.0
18620,13.0
18621,13.0
18622,13.0
18623,13.0
18624,13.0
18625,13.0
18626,13.0
18627,13.0
18628,13.0
18629,13.0
18630,13.0
18631,13.0
18632,13.0
18633,13.0
18634,13.0
18635,13.0
18636,13.0
18637,13.0
18638,13.0
18639,13.0
18640,13.0
18641,13.0
18642,13.0
18643,13.0
18644,13.0
18645,13.0
18646,13.0
18647,13.0
18648,13.0
18649,13.0
18650,13.0
18651,13.0
18652,13.0
18653,13.0
18654,13.0
18655,13.0
18656,13.0
18657,13.0
18658,13.0
18659,13.0
18660,13.0
18661,13.0
18662,13.0
18663,13.0
18664,13.0
18665,13.0
18666,13.0
18667,13.0
18668,13.0
18669,13.0
18670,13.0
18671,13.0
18672,13.0
18673,13.0
18674,13.0
18675,13.0
18676,13.0
18677,13.0
18678,13.0
18679,13.0
18680,13.0
18681,13.0
18682,13.0
18683,13.0
18684,13.0
18685,13.0
18686,13.0
18687,13.0
18688,13.0
18689,13.0
18690,13.0
18691,13.0
18692,13.0
18693,13.0
18694,13.0
18695,13.0
18696,13.0
18697,13.0
18698,13.0
18699,13.0
18700,13.0
18701,13.0
18702,13.0
18703,13.0
18704,13.0
18705,13.0
18706,13.0
18707,13.0
18708,13.0
18709,13.0
18710,13.0
18711,13.0
18712,13.0
18713,13.0
18714,13.0
18715,13.0
18716,13.0
18717,13.0
18718,13.0
18719,13.0
18720,13.0
18721,13.0
18722,13.0
18723,13.0
18724,13.0
18725,13.0
18726,13.0
18727,13.0
18728,13.0
18729,13.0
18730,13.0
18731,13.0
18732,13.0
18733,13.0
18734,13.0
18735,13.0
18736,13.0
18737,13.0
18738,13.0
18739,13.0
18740,13.0
18741,13.0
18742,13.0
18743,13.0
18744,13.0
18745,13.0
18746,13.0
18747,13.0
18748,13.0
18749,13.0
18750,13.0
18751,13.0
18752,13.0
18753,13.0
18754,13.0
18755,13.0
18756,13.0
18757,13.0
18758,13.0
18759,13.0
18760,13.0
18761,13.0
18762,13.0
18763,13.0
18764,13.0
18765,13.0
18766,13.0
18767,13.0
18768,13.0
18769,13.0
18770,13.0
18771,13.0
18772,13.0
18773,13.0
18774,13.0
18775,13.0
18776,13.0
18777,13.0
18778,13.0
18779,13.0
18780,13.0
18781,13.0
18782,13.0
18783,13.0
18784,13.0
18785,13.0
18786,13.0
18787,13.0
18788,13.0
18789,13.0
18790,13.0
18791,13.0
18792,13.0
18793,13.0
18794,13.0
18795,13.0
18796,13.0
18797,13.0
18798,13.0
18799,13.0
18800,13.0
18801,13.0
18802,13.0
18803,13.0
18804,13.0
18805,13.0
18806,13.0
18807,13.0
18808,13.0
18809,13.0
18810,13.0
18811,13.0
18812,13.0
18813,13.0
18814,13.0
18815,13.0
18816,13.0
18817,13.0
18818,13.0
18819,13.0
18820,13.0
18821,13.0
18822,13.0
18823,13.0
18824,13.0
18825,13.0
18826,13.0
18827,13.0
18828,13.0
18829,13.0
18830,13.0
18831,13.0
18832,13.0
18833,13.0
18834,13.0
18835,13.0
18836,13.0
18837,13.0
18838,13.0
18839,13.0
18840,13.0
18841,13.0
18842,13.0
18843,13.0
18844,13.0
18845,13.0
18846,13.0
18847,13.0
18848,13.0
18849,13.0
18850,13.0
18851,13.0
18852,13.0
18853,13.0
18854,13.0
18855,13.0
18856,13.0
18857,13.0
18858,13.0
18859,13.0
18860,13.0
18861,13.0
18862,13.0
18863,13.0
18864,13.0
18865,13.0
18866,13.0
18867,13.0
18868,13.0
18869,13.0
18870,13.0
18871,13.0
18872,13.0
18873,13.0
18874,13.0
18875,13.0
18876,13.0
18877,13.0
18878,13.0
18879,13.0
18880,13.0
18881,13.0
18882,13.0
18883,13.0
18884,13.0
18885,13.0
18886,13.0
18887,13.0
18888,13.0
18889,13.0
18890,13.0
18891,13.0
18892,13.0
18893,13.0
18894,13.0
18895,13.0
18896,13.0
18897,13.0
18898,13.0
18899,13.0
18900,13.0
18901,13.0
18902,13.0
18903,13.0
18904,13.0
18905,13.0
18906,13.0
18907,13.0
18908,13.0
18909,13.0
18910,13.0
18911,13.0
18912,13.0
18913,13.0
18914,13.0
18915,13.0
18916,13.0
18917,13.0
18918,13.0
18919,13.0
18920,13.0
18921,13.0
18922,13.0
18923,13.0
18924,13.0
18925,13.0
18926,13.0
18927,13.0
18928,13.0
18929,13.0
18930,13.0
18931,13.0
18932,13.0
18933,13.0
18934,13.0
18935,13.0
18936,13.0
18937,13.0
18938,13.0
18939,13.0
18940,13.0
18941,13.0
18942,13.0
18943,13.0
18944,13.0
18945,13.0
18946,13.0
18947,13.0
18948,13.0
18949,13.0
18950,13.0
18951,13.0
18952,13.0
18953,13.0
18954,13.0
18955,13.0
18956,13.0
18957,13.0
18958,13.0
18959,13.0
18960,13.0
18961,13.0
18962,13.0
18963,13.0
18964,13.0
18965,13.0
18966,13.0
18967,13.0
18968,13.0
18969,13.0
18970,13.0
18971,13.0
18972,13.0
18973,13.0
18974,13.0
18975,13.0
18976,13.0
18977,13.0
18978,13.0
18979,13.0
18980,13.0
18981,13.0
18982,13.0
18983,13.0
18984,13.0
18985,13.0
18986,13.0
18987,13.0
18988,13.0
18989,13.0
18990,13.0
18991,13.0
18992,13.0
18993,13.0
18994,13.0
18995,13.0
18996,13.0
18997,13.0
18998,13.0
18999,13.0
19000,13.0
19001,13.0
19002,13.0
19003,13.0
19004,13.0
19005,13.0
19006,13.0
19007,13.0
19008,13.0
19009,13.0
19010,13.0
19011,13.0
19012,13.0
19013,13.0
19014,13.0
19015,13.0
19016,13.0
19017,13.0
19018,13.0
19019,13.0
19020,13.0
19021,13.0
19022,13.0
19023,13.0
19024,13.0
19025,13.0
19026,13.0
19027,13.0
19028,13.0
19029,13.0
19030,13.0
19031,13.0
19032,13.0
19033,13.0
19034,13.0
19035,13.0
19036,13.0
19037,13.0
19038,13.0
19039,13.0
19040,13.0
19041,13.0
19042,13.0
19043,13.0
19044,13.0
19045,13.0
19046,13.0
19047,13.0
19048,13.0
19049,13.0
19050,13.0
19051,13.0
19052,13.0
19053,13.0
19054,13.0
19055,13.0
19056,13.0
19057,13.0
19058,13.0
19059,13.0
19060,13.0
19061,13.0
19062,13.0
19063,13.0
19064,13.0
19065,13.0
19066,13.0
19067,13.0
19068,13.0
19069,13.0
19070,13.0
19071,13.0
19072,13.0
19073,13.0
19074,13.0
19075,13.0
19076,13.0
19077,13.0
19078,13.0
19079,13.0
19080,13.0
19081,13.0
19082,13.0
19083,13.0
19084,13.0
19085,13.0
19086,13.0
19087,13.0
19088,13.0
19089,13.0
19090,13.0
19091,13.0
19092,13.0
19093,13.0
19094,13.0
19095,13.0
19096,13.0
19097,13.0
19098,13.0
19099,13.0
19100,13.0
19101,13.0
19102,13.0
19103,13.0
19104,13.0
19105,13.0
19106,13.0
19107,13.0
19108,13.0
19109,13.0
19110,13.0
19111,13.0
19112,13.0
19113,13.0
19114,13.0
19115,13.0
19116,13.0
19117,13.0
19118,13.0
19119,13.0
19120,13.0
19121,13.0
19122,13.0
19123,13.0
19124,13.0
19125,13.0
19126,13.0
19127,13.0
19128,13.0
19129,13.0
19130,13.0
19131,13.0
19132,13.0
19133,13.0
19134,13.0
19135,13.0
19136,13.0
19137,13.0
19138,13.0
19139,13.0
19140,13.0
19141,13.0
19142,13.0
19143,13.0
19144,13.0
19145,13.0
19146,13.0
19147,13.0
19148,13.0
19149,13.0
19150,13.0
19151,13.0
19152,13.0
19153,13.0
19154,13.0
19155,13.0
19156,13.0
19157,13.0
19158,13.0
19159,13.0
19160,13.0
19161,13.0
19162,13.0
19163,13.0
19164,13.0
19165,13.0
19166,13.0
19167,13.0
19168,13.0
19169,13.0
19170,13.0
19171,13.0
19172,13.0
19173,13.0
19174,13.0
19175,13.0
19176,13.0
19177,13.0
19178,13.0
19179,13.0
19180,13.0
19181,13.0
19182,13.0
19183,13.0
19184,13.0
19185,13.0
19186,13.0
19187,13.0
19188,13.0
19189,13.0
19190,13.0
19191,13.0
19192,13.0
19193,13.0
19194,13.0
19195,13.0
19196,13.0
19197,13.0
19198,13.0
19199,13.0
19200,13.0
19201,13.0
19202,13.0
19203,13.0
19204,13.0
19205,13.0
19206,13.0
19207,13.0
19208,13.0
19209,13.0
19210,13.0
19211,13.0
19212,13.0
19213,13.0
19214,13.0
19215,13.0
19216,13.0
19217,13.0
19218,13.0
19219,13.0
19220,13.0
19221,13.0
19222,13.0
19223,13.0
19224,13.0
19225,13.0
19226,13.0
19227,13.0
19228,13.0
19229,13.0
19230,13.0
19231,13.0
19232,13.0
19233,13.0
19234,13.0
19235,13.0
19236,13.0
19237,13.0
19238,13.0
19239,13.0
19240,13.0
19241,13.0
19242,13.0
19243,13.0
19244,13.0
19245,13.0
19246,13.0
19247,13.0
19248,13.0
19249,13.0
19250,13.0
19251,13.0
19252,13.0
19253,13.0
19254,13.0
19255,13.0
19256,13.0
19257,13.0
19258,13.0
19259,13.0
19260,13.0
19261,13.0
19262,13.0
19263,13.0
19264,13.0
19265,13.0
19266,13.0
19267,13.0
19268,13.0
19269,13.0
19270,13.0
19271,13.0
19272,13.0
19273,13.0
19274,13.0
19275,13.0
19276,13.0
19277,13.0
19278,13.0
19279,13.0
19280,13.0
19281,13.0
19282,13.0
19283,13.0
19284,13.0
19285,13.0
19286,13.0
19287,13.0
19288,13.0
19289,13.0
19290,13.0
19291,13.0
19292,13.0
19293,13.0
19294,13.0
19295,13.0
19296,13.0
19297,13.0
19298,13.0
19299,13.0
19300,13.0
19301,13.0
19302,13.0
19303,13.0
19304,13.0
19305,13.0
19306,13.0
19307,13.0
19308,13.0
19309,13.0
19310,13.0
19311,13.0
19312,13.0
19313,13.0
19314,13.0
19315,13.0
19316,13.0
19317,13.0
19318,13.0
19319,13.0
19320,13.0
19321,13.0
19322,13.0
19323,13.0
19324,13.0
19325,13.0
19326,13.0
19327,13.0
19328,13.0
19329,13.0
19330,13.0
19331,13.0
19332,13.0
19333,13.0
19334,13.0
19335,13.0
19336,13.0
19337,13.0
19338,13.0
19339,13.0
19340,13.0
19341,13.0
19342,13.0
19343,13.0
19344,13.0
19345,13.0
19346,13.0
19347,13.0
19348,13.0
19349,13.0
19350,13.0
19351,13.0
19352,13.0
19353,13.0
19354,13.0
19355,13.0
19356,13.0
19357,13.0
19358,13.0
19359,13.0
19360,13.0
19361,13.0
19362,13.0
19363,13.0
19364,13.0
19365,13.0
19366,13.0
19367,13.0
19368,13.0
19369,13.0
19370,13.0
19371,13.0
19372,13.0
19373,13.0
19374,13.0
19375,13.0
19376,13.0
19377,13.0
19378,13.0
19379,13.0
19380,13.0
19381,13.0
19382,13.0
19383,13.0
19384,13.0
19385,13.0
19386,13.0
19387,13.0
19388,13.0
19389,13.0
19390,13.0
19391,13.0
19392,13.0
19393,13.0
19394,13.0
19395,13.0
19396,13.0
19397,13.0
19398,13.0
19399,13.0
19400,13.0
19401,13.0
19402,13.0
19403,13.0
19404,13.0
19405,13.0
19406,13.0
19407,13.0
19408,13.0
19409,13.0
19410,13.0
19411,13.0
19412,13.0
19413,13.0
19414,13.0
19415,13.0
19416,13.0
19417,13.0
19418,13.0
19419,13.0
19420,13.0
19421,13.0
19422,13.0
19423,13.0
19424,13.0
19425,13.0
19426,13.0
19427,13.0
19428,13.0
19429,13.0
19430,13.0
19431,13.0
19432,13.0
19433,13.0
19434,13.0
19435,13.0
19436,13.0
19437,13.0
19438,13.0
19439,13.0
19440,13.0
19441,13.0
19442,13.0
19443,13.0
19444,13.0
19445,13.0
19446,13.0
19447,13.0
19448,13.0
19449,13.0
19450,13.0
19451,13.0
19452,13.0
19453,13.0
19454,13.0
19455,13.0
19456,13.0
19457,13.0
19458,13.0
19459,13.0
19460,13.0
19461,13.0
19462,13.0
19463,13.0
19464,13.0
19465,13.0
19466,13.0
19467,13.0
19468,13.0
19469,13.0
19470,13.0
19471,13.0
19472,13.0
19473,13.0
19474,13.0
19475,13.0
19476,13.0
19477,13.0
19478,13.0
19479,13.0
19480,13.0
19481,13.0
19482,13.0
19483,13.0
19484,13.0
19485,13.0
19486,13.0
19487,13.0
19488,13.0
19489,13.0
19490,13.0
19491,13.0
19492,13.0
19493,13.0
19494,13.0
19495,13.0
19496,13.0
19497,13.0
19498,13.0
19499,13.0
19500,13.0
19501,13.0
19502,13.0
19503,13.0
19504,13.0
19505,13.0
19506,13.0
19507,13.0
19508,13.0
19509,13.0
19510,13.0
19511,13.0
19512,13.0
19513,13.0
19514,13.0
19515,13.0
19516,13.0
19517,13.0
19518,13.0
19519,13.0
19520,13.0
19521,13.0
19522,13.0
19523,13.0
19524,13.0
19525,13.0
19526,13.0
19527,13.0
19528,13.0
19529,13.0
19530,13.0
19531,13.0
19532,13.0
19533,13.0
19534,13.0
19535,13.0
19536,13.0
19537,13.0
19538,13.0
19539,13.0
19540,13.0
19541,13.0
19542,13.0
19543,13.0
19544,13.0
19545,13.0
19546,13.0
19547,13.0
19548,13.0
19549,13.0
19550,13.0
19551,13.0
19552,13.0
19553,13.0
19554,13.0
19555,13.0
19556,13.0
19557,13.0
19558,13.0
19559,13.0
19560,13.0
19561,13.0
19562,13.0
19563,13.0
19564,13.0
19565,13.0
19566,13.0
19567,13.0
19568,13.0
19569,13.0
19570,13.0
19571,13.0
19572,13.0
19573,13.0
19574,13.0
19575,13.0
19576,13.0
19577,13.0
19578,13.0
19579,13.0
19580,13.0
19581,13.0
19582,13.0
19583,13.0
19584,13.0
19585,13.0
19586,13.0
19587,13.0
19588,13.0
19589,13.0
19590,13.0
19591,13.0
19592,13.0
19593,13.0
19594,13.0
19595,13.0
19596,13.0
19597,13.0
19598,13.0
19599,13.0
19600,13.0
19601,13.0
19602,13.0
19603,13.0
19604,13.0
19605,13.0
19606,13.0
19607,13.0
19608,13.0
19609,13.0
19610,13.0
19611,13.0
19612,13.0
19613,13.0
19614,13.0
19615,13.0
19616,13.0
19617,13.0
19618,13.0
19619,13.0
19620,13.0
19621,13.0
19622,13.0
19623,13.0
19624,13.0
19625,13.0
19626,13.0
19627,13.0
19628,13.0
19629,13.0
19630,13.0
19631,13.0
19632,13.0
19633,13.0
19634,13.0
19635,13.0
19636,13.0
19637,13.0
19638,13.0
19639,13.0
19640,13.0
19641,13.0
19642,13.0
19643,13.0
19644,13.0
19645,13.0
19646,13.0
19647,13.0
19648,13.0
19649,13.0
19650,13.0
19651,13.0
19652,13.0
19653,13.0
19654,13.0
19655,13.0
19656,13.0
19657,13.0
19658,13.0
19659,13.0
19660,13.0
19661,13.0
19662,13.0
19663,13.0
19664,13.0
19665,13.0
19666,13.0
19667,13.0
19668,13.0
19669,13.0
19670,13.0
19671,13.0
19672,13.0
19673,13.0
19674,13.0
19675,13.0
19676,13.0
19677,13.0
19678,13.0
19679,13.0
19680,13.0
19681,13.0
19682,13.0
19683,13.0
19684,13.0
19685,13.0
19686,13.0
19687,13.0
19688,13.0
19689,13.0
19690,13.0
19691,13.0
19692,13.0
19693,13.0
19694,13.0
19695,13.0
19696,13.0
19697,13.0
19698,13.0
19699,13.0
19700,13.0
19701,13.0
19702,13.0
19703,13.0
19704,13.0
19705,13.0
19706,13.0
19707,13.0
19708,13.0
19709,13.0
19710,13.0
19711,13.0
19712,13.0
19713,13.0
19714,13.0
19715,13.0
19716,13.0
19717,13.0
19718,13.0
19719,13.0
19720,13.0
19721,13.0
19722,13.0
19723,13.0
19724,13.0
19725,13.0
19726,13.0
19727,13.0
19728,13.0
19729,13.0
19730,13.0
19731,13.0
19732,13.0
19733,13.0
19734,13.0
19735,13.0
19736,13.0
19737,13.0
19738,13.0
19739,13.0
19740,13.0
19741,13.0
19742,13.0
19743,13.0
19744,13.0
19745,13.0
19746,13.0
19747,13.0
19748,13.0
19749,13.0
19750,13.0
19751,13.0
19752,13.0
19753,13.0
19754,13.0
19755,13.0
19756,13.0
19757,13.0
19758,13.0
19759,13.0
19760,13.0
19761,13.0
19762,13.0
19763,13.0
19764,13.0
19765,13.0
19766,13.0
19767,13.0
19768,13.0
19769,13.0
19770,13.0
19771,13.0
19772,13.0
19773,13.0
19774,13.0
19775,13.0
19776,13.0
19777,13.0
19778,13.0
19779,13.0
19780,13.0
19781,13.0
19782,13.0
19783,13.0
19784,13.0
19785,13.0
19786,13.0
19787,13.0
19788,13.0
19789,13.0
19790,13.0
19791,13.0
19792,13.0
19793,13.0
19794,13.0
19795,13.0
19796,13.0
19797,13.0
19798,13.0
19799,13.0
19800,13.0
19801,13.0
19802,13.0
19803,13.0
19804,13.0
19805,13.0
19806,13.0
19807,13.0
19808,13.0
19809,13.0
19810,13.0
19811,13.0
19812,13.0
19813,13.0
19814,13.0
19815,13.0
19816,13.0
19817,13.0
19818,13.0
19819,13.0
19820,13.0
19821,13.0
19822,13.0
19823,13.0
19824,13.0
19825,13.0
19826,13.0
19827,13.0
19828,13.0
19829,13.0
19830,13.0
19831,13.0
19832,13.0
19833,13.0
19834,13.0
19835,13.0
19836,13.0
19837,13.0
19838,13.0
19839,13.0
19840,13.0
19841,13.0
19842,13.0
19843,13.0
19844,13.0
19845,13.0
19846,13.0
19847,13.0
19848,13.0
19849,13.0
19850,13.0
19851,13.0
19852,13.0
19853,13.0
19854,13.0
19855,13.0
19856,13.0
19857,13.0
19858,13.0
19859,13.0
19860,13.0
19861,13.0
19862,13.0
19863,13.0
19864,13.0
19865,13.0
19866,13.0
19867,13.0
19868,13.0
19869,13.0
19870,13.0
19871,13.0
19872,13.0
19873,13.0
19874,13.0
19875,13.0
19876,13.0
19877,13.0
19878,13.0
19879,13.0
19880,13.0
19881,13.0
19882,13.0
19883,13.0
19884,13.0
19885,13.0
19886,13.0
19887,13.0
19888,13.0
19889,13.0
19890,13.0
19891,13.0
19892,13.0
19893,13.0
19894,13.0
19895,13.0
19896,13.0
19897,13.0
19898,13.0
19899,13.0
19900,13.0
19901,13.0
19902,13.0
19903,13.0
19904,13.0
19905,13.0
19906,13.0
19907,13.0
19908,13.0
19909,13.0
19910,13.0
19911,13.0
19912,13.0
19913,13.0
19914,13.0
19915,13.0
19916,13.0
19917,13.0
19918,13.0
19919,13.0
19920,13.0
19921,13.0
19922,13.0
19923,13.0
19924,13.0
19925,13.0
19926,13.0
19927,13.0
19928,13.0
19929,13.0
19930,13.0
19931,13.0
19932,13.0
19933,13.0
19934,13.0
19935,13.0
19936,13.0
19937,13.0
19938,13.0
19939,13.0
19940,13.0
19941,13.0
19942,13.0
19943,13.0
19944,13.0
19945,13.0
19946,13.0
19947,13.0
19948,13.0
19949,13.0
19950,13.0
19951,13.0
